I
1110 Version
1234 device type code
0.145000
0.750000
-0.25000  0.00000
-0.21845  0.35489
-0.14274  0.57834
-0.00552  0.67035
 0.19164  0.60463
 0.75000  0.00000
 0.75000  0.00000
 0.75000  0.00000
 0.75000  0.00000
 0.19164 -0.26288
-0.02129 -0.34175
-0.18218 -0.28917
-0.22792 -0.21030
-0.25000 -0.00000
2
0.10000 0.11650 0.34100 -9.30000 14.00000 5.40000 1.50000 1.40000 0.01000 1.74000 0.90000 0.01710 0.60000 0.02420 3.00000 0.10000 0.20000 0.00200 2.00000 -11.00000 13.50000 1.55000 -0.06000 0.02300 -0.68500
alpha cl cd cm:
-180.0  0.19522  0.06815  0.04881
-179.0  0.26192  0.09048  0.06586
-178.0  0.32862  0.11278  0.08309
-177.0  0.39531  0.13505  0.10046
-176.0  0.46201  0.15727  0.11796
-175.0  0.52870  0.17945  0.13558
-174.0  0.58068  0.20157  0.14964
-173.0  0.62076  0.22363  0.16085
-172.0  0.65808  0.24563  0.17146
-171.0  0.69239  0.26755  0.18143
-170.0  0.72343  0.28938  0.19067
-169.0  0.75079  0.31113  0.19909
-168.0  0.77390  0.33279  0.20654
-167.0  0.79174  0.35434  0.21279
-166.0  0.80150  0.37579  0.21715
-165.0  0.77297  0.39712  0.21235
-164.0  0.71960  0.41833  0.20176
-163.0  0.64152  0.43941  0.18549
-162.0  0.54132  0.46036  0.16427
-161.0  0.42059  0.48116  0.13858
-160.0  0.28052  0.50183  0.10881
-159.0  0.33270  0.52233  0.12445
-158.0  0.38467  0.54268  0.13999
-157.0  0.43623  0.56287  0.15537
-156.0  0.48718  0.58288  0.17053
-155.0  0.53731  0.60272  0.18542
-154.0  0.58643  0.62237  0.19998
-153.0  0.63434  0.64183  0.21415
-152.0  0.68085  0.66110  0.22788
-151.0  0.72578  0.68016  0.24113
-150.0  0.76896  0.69902  0.25386
-149.0  0.81021  0.71766  0.26603
-148.0  0.84937  0.73609  0.27759
-147.0  0.88628  0.75429  0.28853
-146.0  0.92080  0.77227  0.29881
-145.0  0.95280  0.79000  0.30840
-144.0  0.98214  0.80750  0.31730
-143.0  1.00871  0.82475  0.32549
-142.0  1.03241  0.84175  0.33295
-141.0  1.05315  0.85849  0.33968
-140.0  1.07083  0.87497  0.34568
-139.0  1.08539  0.89119  0.35096
-138.0  1.09678  0.90713  0.35551
-137.0  1.10495  0.92280  0.35936
-136.0  1.10986  0.93819  0.36252
-135.0  1.11150  0.95329  0.36501
-134.0  1.11082  0.96810  0.36701
-133.0  1.10879  0.98261  0.36871
-132.0  1.10541  0.99683  0.37011
-131.0  1.10068  1.01074  0.37123
-130.0  1.09461  1.02434  0.37207
-129.0  1.08721  1.03763  0.37265
-128.0  1.07848  1.05061  0.37297
-127.0  1.06844  1.06327  0.37304
-126.0  1.05710  1.07560  0.37288
-125.0  1.04447  1.08760  0.37250
-124.0  1.03057  1.09928  0.37191
-123.0  1.01541  1.11062  0.37112
-122.0  0.99901  1.12162  0.37014
-121.0  0.98140  1.13227  0.36900
-120.0  0.96259  1.14259  0.36770
-119.0  0.94261  1.15255  0.36626
-118.0  0.92148  1.16217  0.36468
-117.0  0.89922  1.17143  0.36300
-116.0  0.87587  1.18033  0.36121
-115.0  0.85146  1.18888  0.35933
-114.0  0.82601  1.19706  0.35738
-113.0  0.79955  1.20487  0.35538
-112.0  0.77211  1.21232  0.35332
-111.0  0.74374  1.21941  0.35124
-110.0  0.71446  1.22612  0.34913
-109.0  0.68431  1.23245  0.34702
-108.0  0.65332  1.23841  0.34492
-107.0  0.62154  1.24400  0.34284
-106.0  0.58901  1.24920  0.34079
-105.0  0.55575  1.25402  0.33878
-104.0  0.52182  1.25847  0.33683
-103.0  0.48725  1.26252  0.33494
-102.0  0.45209  1.26620  0.33313
-101.0  0.41638  1.26949  0.33140
-100.0  0.38016  1.27239  0.32977
 -99.0  0.34347  1.27490  0.32823
 -98.0  0.30637  1.27703  0.32681
 -97.0  0.26890  1.27876  0.32550
 -96.0  0.23109  1.28011  0.32431
 -95.0  0.19301  1.28107  0.32325
 -94.0  0.15469  1.28164  0.32233
 -93.0  0.11618  1.28181  0.32153
 -92.0  0.07753  1.28160  0.32088
 -91.0  0.03879  1.28099  0.32037
 -90.0  0.00000  1.28000  0.32000
 -89.0 -0.03879  1.28099  0.32037
 -88.0 -0.07753  1.28160  0.32088
 -87.0 -0.11618  1.28181  0.32153
 -86.0 -0.15469  1.28164  0.32233
 -85.0 -0.19301  1.28107  0.32325
 -84.0 -0.23109  1.28011  0.32431
 -83.0 -0.26890  1.27876  0.32550
 -82.0 -0.30637  1.27703  0.32681
 -81.0 -0.34347  1.27490  0.32823
 -80.0 -0.38015  1.27239  0.32977
 -79.0 -0.41637  1.26949  0.33140
 -78.0 -0.45209  1.26620  0.33313
 -77.0 -0.48725  1.26252  0.33494
 -76.0 -0.52182  1.25847  0.33683
 -75.0 -0.55575  1.25402  0.33878
 -74.0 -0.58901  1.24920  0.34079
 -73.0 -0.62154  1.24400  0.34284
 -72.0 -0.65332  1.23841  0.34492
 -71.0 -0.68431  1.23245  0.34702
 -70.0 -0.71446  1.22612  0.34913
 -69.0 -0.74374  1.21941  0.35124
 -68.0 -0.77211  1.21232  0.35332
 -67.0 -0.79955  1.20487  0.35538
 -66.0 -0.82601  1.19706  0.35738
 -65.0 -0.85146  1.18888  0.35933
 -64.0 -0.87587  1.18033  0.36121
 -63.0 -0.89922  1.17143  0.36300
 -62.0 -0.92148  1.16217  0.36468
 -61.0 -0.94261  1.15255  0.36626
 -60.0 -0.96259  1.14259  0.36770
 -59.0 -0.98140  1.13227  0.36900
 -58.0 -0.99901  1.12162  0.37014
 -57.0 -1.01541  1.11062  0.37112
 -56.0 -1.03056  1.09928  0.37191
 -55.0 -1.04447  1.08760  0.37250
 -54.0 -1.05710  1.07560  0.37288
 -53.0 -1.06844  1.06327  0.37304
 -52.0 -1.07848  1.05061  0.37297
 -51.0 -1.08721  1.03764  0.37265
 -50.0 -1.09461  1.02434  0.37207
 -49.0 -1.10068  1.01074  0.37123
 -48.0 -1.10541  0.99683  0.37011
 -47.0 -1.10879  0.98261  0.36871
 -46.0 -1.11082  0.96810  0.36701
 -45.0 -1.11150  0.95329  0.36501
 -44.0 -1.10893  0.93819  0.58159
 -43.0 -1.10122  0.92280  0.78314
 -42.0 -1.08841  0.90713  0.96975
 -41.0 -1.07055  0.89119  1.14152
 -40.0 -1.04770  0.87497  1.29856
 -39.0 -1.01996  0.85849  1.44099
 -38.0 -0.98744  0.84175  1.56894
 -37.0 -0.95027  0.82475  1.68255
 -36.0 -0.90858  0.80750  1.78195
 -35.0 -0.86255  0.79000  1.86729
 -34.0 -0.81236  0.76065  1.93779
 -33.0 -0.75821  0.72824  1.99449
 -32.0 -0.70031  0.69461  2.03770
 -31.0 -0.63888  0.66002  2.06759
 -30.0 -0.57418  0.62472  2.08429
 -29.0 -0.50645  0.58893  2.08796
 -28.0 -0.43597  0.55288  2.07872
 -27.0 -0.36300  0.51679  2.05666
 -26.0 -0.28785  0.48085  2.02190
 -25.0 -0.21080  0.44526  1.97452
 -24.0 -0.13217  0.41019  1.91457
 -23.0 -0.05225  0.37582  1.84211
 -22.0  0.02863  0.34230  1.75719
 -21.0  0.11015  0.30979  1.65982
 -20.0  0.19200  0.27840  1.55000
 -19.9  0.17742  0.27533  1.53211
 -19.8  0.16293  0.27228  1.51422
 -19.7  0.14855  0.26923  1.49633
 -19.6  0.13427  0.26620  1.47844
 -19.5  0.12009  0.26318  1.46056
 -19.4  0.10602  0.26017  1.44267
 -19.3  0.09205  0.25718  1.42478
 -19.2  0.07818  0.25420  1.40689
 -19.1  0.06441  0.25124  1.38900
 -19.0  0.05075  0.24829  1.37111
 -18.9  0.03719  0.24535  1.35322
 -18.8  0.02373  0.24243  1.33533
 -18.7  0.01038  0.23952  1.31744
 -18.6 -0.00286  0.23662  1.29956
 -18.5 -0.01600  0.23374  1.28167
 -18.4 -0.02904  0.23087  1.26378
 -18.3 -0.04197  0.22802  1.24589
 -18.2 -0.05479  0.22518  1.22800
 -18.1 -0.06751  0.22236  1.21011
 -18.0 -0.08012  0.21955  1.19222
 -17.9 -0.09262  0.21675  1.17433
 -17.8 -0.10502  0.21397  1.15644
 -17.7 -0.11731  0.21121  1.13856
 -17.6 -0.12949  0.20846  1.12067
 -17.5 -0.14156  0.20573  1.10278
 -17.4 -0.15353  0.20301  1.08489
 -17.3 -0.16539  0.20031  1.06700
 -17.2 -0.17713  0.19762  1.04911
 -17.1 -0.18877  0.19495  1.03122
 -17.0 -0.20030  0.19229  1.01333
 -16.9 -0.21172  0.18965  0.99544
 -16.8 -0.22302  0.18702  0.97756
 -16.7 -0.23422  0.18442  0.95967
 -16.6 -0.24530  0.18182  0.94178
 -16.5 -0.25628  0.17925  0.92389
 -16.4 -0.26714  0.17669  0.90600
 -16.3 -0.27788  0.17414  0.88811
 -16.2 -0.28852  0.17161  0.87022
 -16.1 -0.29904  0.16910  0.85233
 -16.0 -0.30945  0.16661  0.83444
 -15.9 -0.31974  0.16413  0.81656
 -15.8 -0.32992  0.16167  0.79867
 -15.7 -0.33998  0.15922  0.78078
 -15.6 -0.34993  0.15680  0.76289
 -15.5 -0.35976  0.15438  0.74500
 -15.4 -0.36948  0.15199  0.72711
 -15.3 -0.37907  0.14961  0.70922
 -15.2 -0.38855  0.14725  0.69133
 -15.1 -0.39792  0.14491  0.67344
 -15.0 -0.40716  0.14259  0.65556
 -14.9 -0.41628  0.14028  0.63767
 -14.8 -0.42529  0.13799  0.61978
 -14.7 -0.43417  0.13571  0.60189
 -14.6 -0.44293  0.13346  0.58400
 -14.5 -0.45157  0.13122  0.56611
 -14.4 -0.46009  0.12900  0.54822
 -14.3 -0.46849  0.12679  0.53033
 -14.2 -0.47676  0.12461  0.51244
 -14.1 -0.48491  0.12244  0.49456
 -14.0 -0.49294  0.12029  0.47667
 -13.9 -0.50084  0.11816  0.45878
 -13.8 -0.50861  0.11605  0.44089
 -13.7 -0.51626  0.11395  0.42300
 -13.6 -0.52377  0.11187  0.40511
 -13.5 -0.53116  0.10981  0.38722
 -13.4 -0.53843  0.10777  0.36933
 -13.3 -0.54556  0.10575  0.35144
 -13.2 -0.55256  0.10374  0.33356
 -13.1 -0.55943  0.10176  0.31567
 -13.0 -0.56616  0.09979  0.29778
 -12.9 -0.57277  0.09784  0.27989
 -12.8 -0.57924  0.09591  0.26200
 -12.7 -0.58557  0.09399  0.24411
 -12.6 -0.59177  0.09210  0.22622
 -12.5 -0.59783  0.09022  0.20833
 -12.4 -0.60375  0.08837  0.19044
 -12.3 -0.60953  0.08653  0.17256
 -12.2 -0.61517  0.08471  0.15467
 -12.1 -0.62067  0.08291  0.13678
 -12.0 -0.62602  0.08113  0.11889
 -11.9 -0.63123  0.07936  0.10100
 -11.8 -0.63630  0.07762  0.08311
 -11.7 -0.64121  0.07589  0.06522
 -11.6 -0.64598  0.07418  0.04733
 -11.5 -0.65060  0.07250  0.02944
 -11.4 -0.65506  0.07083  0.01156
 -11.3 -0.65937  0.06918 -0.00633
 -11.2 -0.66352  0.06755 -0.02422
 -11.1 -0.66752  0.06594 -0.04211
 -11.0 -0.67135  0.06434 -0.06000
 -10.9 -0.67502  0.06277 -0.05966
 -10.8 -0.67852  0.06121 -0.05932
 -10.7 -0.68186  0.05968 -0.05898
 -10.6 -0.68502  0.05816 -0.05864
 -10.5 -0.68801  0.05666 -0.05831
 -10.4 -0.69082  0.05519 -0.05797
 -10.3 -0.69344  0.05373 -0.05763
 -10.2 -0.69588  0.05229 -0.05729
 -10.1 -0.69813  0.05087 -0.05695
 -10.0 -0.70017  0.04947 -0.05661
  -9.9 -0.70201  0.04808 -0.05627
  -9.8 -0.70364  0.04672 -0.05593
  -9.7 -0.70504  0.04538 -0.05560
  -9.6 -0.70621  0.04405 -0.05526
  -9.5 -0.70712  0.04275 -0.05492
  -9.4 -0.70774  0.04146 -0.05458
  -9.3 -0.70800  0.04020 -0.05424
  -9.2 -0.71623  0.03960 -0.05390
  -9.1 -0.71301  0.03902 -0.05356
  -9.0 -0.70883  0.03844 -0.05322
  -8.9 -0.70388  0.03787 -0.05289
  -8.8 -0.69827  0.03732 -0.05255
  -8.7 -0.69206  0.03677 -0.05221
  -8.6 -0.68531  0.03624 -0.05187
  -8.5 -0.67806  0.03571 -0.05153
  -8.4 -0.67034  0.03520 -0.05119
  -8.3 -0.66218  0.03469 -0.05085
  -8.2 -0.65360  0.03419 -0.05051
  -8.1 -0.64463  0.03371 -0.05018
  -8.0 -0.63527  0.03323 -0.04984
  -7.9 -0.62554  0.03276 -0.04950
  -7.8 -0.61546  0.03230 -0.04916
  -7.7 -0.60503  0.03185 -0.04882
  -7.6 -0.59428  0.03141 -0.04848
  -7.5 -0.58320  0.03098 -0.04814
  -7.4 -0.57182  0.03055 -0.04780
  -7.3 -0.56012  0.03014 -0.04747
  -7.2 -0.54814  0.02973 -0.04713
  -7.1 -0.53586  0.02933 -0.04679
  -7.0 -0.52330  0.02894 -0.04645
  -6.9 -0.51047  0.02856 -0.04611
  -6.8 -0.49736  0.02819 -0.04577
  -6.7 -0.48399  0.02783 -0.04543
  -6.6 -0.47036  0.02747 -0.04509
  -6.5 -0.45648  0.02712 -0.04476
  -6.4 -0.44234  0.02678 -0.04442
  -6.3 -0.42796  0.02645 -0.04408
  -6.2 -0.41334  0.02612 -0.04374
  -6.1 -0.39848  0.02580 -0.04340
  -6.0 -0.38339  0.02549 -0.04306
  -5.9 -0.36806  0.02519 -0.04272
  -5.8 -0.35251  0.02490 -0.04238
  -5.7 -0.33674  0.02461 -0.04204
  -5.6 -0.32074  0.02433 -0.04171
  -5.5 -0.30453  0.02405 -0.04137
  -5.4 -0.28810  0.02379 -0.04103
  -5.3 -0.27645  0.02353 -0.04069
  -5.2 -0.26480  0.02327 -0.04035
  -5.1 -0.25315  0.02303 -0.04001
  -5.0 -0.24150  0.02279 -0.03967
  -4.9 -0.22985  0.02256 -0.03933
  -4.8 -0.21820  0.02233 -0.03900
  -4.7 -0.20655  0.02211 -0.03866
  -4.6 -0.19490  0.02190 -0.03832
  -4.5 -0.18325  0.02169 -0.03798
  -4.4 -0.17160  0.02149 -0.03764
  -4.3 -0.15995  0.02129 -0.03730
  -4.2 -0.14830  0.02110 -0.03696
  -4.1 -0.13665  0.02092 -0.03662
  -4.0 -0.12500  0.02074 -0.03629
  -3.9 -0.11335  0.02057 -0.03595
  -3.8 -0.10170  0.02040 -0.03561
  -3.7 -0.09005  0.02023 -0.03527
  -3.6 -0.07840  0.02003 -0.03493
  -3.5 -0.06675  0.01982 -0.03459
  -3.4 -0.05510  0.01958 -0.03425
  -3.3 -0.04345  0.01932 -0.03391
  -3.2 -0.03180  0.01904 -0.03358
  -3.1 -0.02015  0.01874 -0.03324
  -3.0 -0.00850  0.01841 -0.03290
  -2.9  0.00315  0.01807 -0.03256
  -2.8  0.01480  0.01774 -0.03222
  -2.7  0.02645  0.01744 -0.03188
  -2.6  0.03810  0.01718 -0.03154
  -2.5  0.04975  0.01694 -0.03120
  -2.4  0.06140  0.01674 -0.03087
  -2.3  0.07305  0.01657 -0.03053
  -2.2  0.08470  0.01643 -0.03019
  -2.1  0.09635  0.01632 -0.02985
  -2.0  0.10800  0.01624 -0.02951
  -1.9  0.11965  0.01620 -0.02917
  -1.8  0.13130  0.01618 -0.02883
  -1.7  0.14295  0.01620 -0.02849
  -1.6  0.15460  0.01624 -0.02816
  -1.5  0.16625  0.01632 -0.02782
  -1.4  0.17790  0.01642 -0.02748
  -1.3  0.18955  0.01656 -0.02714
  -1.2  0.20120  0.01673 -0.02680
  -1.1  0.21285  0.01689 -0.02646
  -1.0  0.22450  0.01704 -0.02612
  -0.9  0.23615  0.01715 -0.02578
  -0.8  0.24780  0.01724 -0.02544
  -0.7  0.25945  0.01731 -0.02511
  -0.6  0.27110  0.01736 -0.02477
  -0.5  0.28275  0.01738 -0.02443
  -0.4  0.29440  0.01737 -0.02409
  -0.3  0.30605  0.01734 -0.02375
  -0.2  0.31770  0.01731 -0.02341
  -0.1  0.32935  0.01729 -0.02307
   0.0  0.34100  0.01727 -0.02273
   0.1  0.35265  0.01724 -0.02240
   0.2  0.36430  0.01723 -0.02206
   0.3  0.37595  0.01721 -0.02172
   0.4  0.38760  0.01719 -0.02138
   0.5  0.39925  0.01718 -0.02104
   0.6  0.41090  0.01716 -0.02070
   0.7  0.42255  0.01715 -0.02036
   0.8  0.43420  0.01714 -0.02002
   0.9  0.44585  0.01713 -0.01969
   1.0  0.45750  0.01713 -0.01935
   1.1  0.46915  0.01712 -0.01901
   1.2  0.48080  0.01712 -0.01867
   1.3  0.49245  0.01711 -0.01833
   1.4  0.50410  0.01711 -0.01799
   1.5  0.51575  0.01711 -0.01765
   1.6  0.52740  0.01710 -0.01731
   1.7  0.53905  0.01710 -0.01698
   1.8  0.55070  0.01710 -0.01664
   1.9  0.56235  0.01710 -0.01630
   2.0  0.57400  0.01710 -0.01596
   2.1  0.58565  0.01710 -0.01562
   2.2  0.59730  0.01710 -0.01528
   2.3  0.60895  0.01710 -0.01494
   2.4  0.62060  0.01710 -0.01460
   2.5  0.63225  0.01710 -0.01427
   2.6  0.64390  0.01710 -0.01393
   2.7  0.65555  0.01710 -0.01359
   2.8  0.66720  0.01710 -0.01325
   2.9  0.67885  0.01710 -0.01291
   3.0  0.69050  0.01711 -0.01257
   3.1  0.70215  0.01711 -0.01223
   3.2  0.71380  0.01711 -0.01189
   3.3  0.72545  0.01712 -0.01156
   3.4  0.73710  0.01712 -0.01122
   3.5  0.74875  0.01713 -0.01088
   3.6  0.76040  0.01714 -0.01054
   3.7  0.77205  0.01715 -0.01020
   3.8  0.78370  0.01716 -0.00986
   3.9  0.79535  0.01717 -0.00952
   4.0  0.80700  0.01718 -0.00918
   4.1  0.81865  0.01720 -0.00884
   4.2  0.83030  0.01722 -0.00851
   4.3  0.84195  0.01724 -0.00817
   4.4  0.85360  0.01726 -0.00783
   4.5  0.86525  0.01728 -0.00749
   4.6  0.87690  0.01730 -0.00715
   4.7  0.88855  0.01733 -0.00681
   4.8  0.90020  0.01736 -0.00647
   4.9  0.91185  0.01739 -0.00613
   5.0  0.92350  0.01742 -0.00580
   5.1  0.93515  0.01746 -0.00546
   5.2  0.94680  0.01750 -0.00512
   5.3  0.95845  0.01754 -0.00478
   5.4  0.97010  0.01758 -0.00444
   5.5  0.97758  0.01763 -0.00410
   5.6  0.98501  0.01768 -0.00376
   5.7  0.99240  0.01773 -0.00342
   5.8  0.99974  0.01779 -0.00309
   5.9  1.00704  0.01785 -0.00275
   6.0  1.01430  0.01791 -0.00241
   6.1  1.02150  0.01798 -0.00207
   6.2  1.02867  0.01805 -0.00173
   6.3  1.03579  0.01812 -0.00139
   6.4  1.04286  0.01820 -0.00105
   6.5  1.04988  0.01828 -0.00071
   6.6  1.05686  0.01837 -0.00038
   6.7  1.06380  0.01845 -0.00004
   6.8  1.07068  0.01855  0.00030
   6.9  1.07752  0.01864  0.00064
   7.0  1.08431  0.01875  0.00098
   7.1  1.09105  0.01885  0.00132
   7.2  1.09774  0.01896  0.00166
   7.3  1.10438  0.01908  0.00200
   7.4  1.11097  0.01919  0.00233
   7.5  1.11752  0.01932  0.00267
   7.6  1.12401  0.01945  0.00301
   7.7  1.13046  0.01958  0.00335
   7.8  1.13685  0.01972  0.00369
   7.9  1.14319  0.01986  0.00403
   8.0  1.14948  0.02001  0.00437
   8.1  1.15571  0.02016  0.00471
   8.2  1.16190  0.02032  0.00504
   8.3  1.16803  0.02049  0.00538
   8.4  1.17411  0.02066  0.00572
   8.5  1.18013  0.02083  0.00606
   8.6  1.18610  0.02101  0.00640
   8.7  1.19201  0.02120  0.00674
   8.8  1.19787  0.02139  0.00708
   8.9  1.20368  0.02159  0.00742
   9.0  1.20942  0.02180  0.00776
   9.1  1.21511  0.02201  0.00809
   9.2  1.22074  0.02223  0.00843
   9.3  1.22631  0.02245  0.00877
   9.4  1.23183  0.02268  0.00911
   9.5  1.23728  0.02292  0.00945
   9.6  1.24267  0.02316  0.00979
   9.7  1.24801  0.02341  0.01013
   9.8  1.25328  0.02367  0.01047
   9.9  1.25849  0.02393  0.01080
  10.0  1.26363  0.02420  0.01114
  10.1  1.26871  0.02448  0.01148
  10.2  1.27373  0.02476  0.01182
  10.3  1.27868  0.02505  0.01216
  10.4  1.28357  0.02535  0.01250
  10.5  1.28839  0.02566  0.01284
  10.6  1.29313  0.02597  0.01318
  10.7  1.29781  0.02629  0.01351
  10.8  1.30242  0.02662  0.01385
  10.9  1.30696  0.02696  0.01419
  11.0  1.31143  0.02731  0.01453
  11.1  1.31582  0.02766  0.01487
  11.2  1.32013  0.02802  0.01521
  11.3  1.32438  0.02839  0.01555
  11.4  1.32854  0.02877  0.01589
  11.5  1.33262  0.02915  0.01622
  11.6  1.33662  0.02955  0.01656
  11.7  1.34054  0.02995  0.01690
  11.8  1.34438  0.03036  0.01724
  11.9  1.34813  0.03078  0.01758
  12.0  1.35179  0.03121  0.01792
  12.1  1.35536  0.03164  0.01826
  12.2  1.35883  0.03209  0.01860
  12.3  1.36222  0.03255  0.01893
  12.4  1.36550  0.03301  0.01927
  12.5  1.36868  0.03348  0.01961
  12.6  1.37176  0.03397  0.01995
  12.7  1.37473  0.03446  0.02029
  12.8  1.37759  0.03496  0.02063
  12.9  1.38033  0.03547  0.02097
  13.0  1.38295  0.03599  0.02131
  13.1  1.38545  0.03652  0.02164
  13.2  1.38780  0.03707  0.02198
  13.3  1.39002  0.03762  0.02232
  13.4  1.39208  0.03818  0.02266
  13.5  1.39397  0.03875  0.02300
  13.6  1.39569  0.03933  0.01211
  13.7  1.39720  0.03992  0.00122
  13.8  1.39848  0.04052 -0.00968
  13.9  1.39946  0.04113 -0.02057
  14.0  1.40000  0.04176 -0.03146
  14.1  1.38928  0.04347 -0.04235
  14.2  1.38758  0.04521 -0.05325
  14.3  1.38510  0.04697 -0.06414
  14.4  1.38191  0.04874 -0.07503
  14.5  1.37807  0.05054 -0.08592
  14.6  1.37362  0.05236 -0.09682
  14.7  1.36858  0.05419 -0.10771
  14.8  1.36298  0.05605 -0.11860
  14.9  1.35684  0.05793 -0.12949
  15.0  1.35017  0.05983 -0.14038
  15.1  1.34298  0.06175 -0.15128
  15.2  1.33529  0.06369 -0.16217
  15.3  1.32712  0.06564 -0.17306
  15.4  1.31846  0.06762 -0.18395
  15.5  1.30934  0.06962 -0.19485
  15.6  1.29975  0.07164 -0.20574
  15.7  1.28971  0.07368 -0.21663
  15.8  1.27923  0.07574 -0.22752
  15.9  1.26830  0.07781 -0.23842
  16.0  1.25694  0.07991 -0.24931
  16.1  1.24515  0.08203 -0.26020
  16.2  1.23294  0.08417 -0.27109
  16.3  1.22031  0.08632 -0.28198
  16.4  1.20726  0.08850 -0.29288
  16.5  1.19381  0.09069 -0.30377
  16.6  1.17995  0.09291 -0.31466
  16.7  1.16570  0.09514 -0.32555
  16.8  1.15105  0.09740 -0.33645
  16.9  1.13600  0.09967 -0.34734
  17.0  1.12057  0.10196 -0.35823
  17.1  1.10475  0.10427 -0.36912
  17.2  1.08855  0.10660 -0.38002
  17.3  1.07197  0.10895 -0.39091
  17.4  1.05501  0.11132 -0.40180
  17.5  1.03768  0.11371 -0.41269
  17.6  1.01998  0.11611 -0.42358
  17.7  1.00191  0.11854 -0.43448
  17.8  0.98348  0.12098 -0.44537
  17.9  0.96468  0.12344 -0.45626
  18.0  0.94553  0.12593 -0.46715
  18.1  0.92602  0.12842 -0.47805
  18.2  0.90615  0.13094 -0.48894
  18.3  0.88593  0.13348 -0.49983
  18.4  0.86535  0.13603 -0.51072
  18.5  0.84443  0.13860 -0.52162
  18.6  0.82316  0.14119 -0.53251
  18.7  0.80155  0.14380 -0.54340
  18.8  0.77959  0.14643 -0.55429
  18.9  0.75730  0.14907 -0.56518
  19.0  0.73466  0.15173 -0.57608
  19.1  0.71168  0.15441 -0.58697
  19.2  0.68837  0.15711 -0.59786
  19.3  0.66473  0.15982 -0.60875
  19.4  0.64075  0.16256 -0.61965
  19.5  0.61645  0.16531 -0.63054
  19.6  0.59181  0.16807 -0.64143
  19.7  0.56684  0.17086 -0.65232
  19.8  0.54155  0.17366 -0.66322
  19.9  0.51594  0.17647 -0.67411
  20.0  0.49000  0.17931 -0.68500
  21.0  0.52902  0.20855 -0.76785
  22.0  0.56789  0.23937 -0.84294
  23.0  0.60646  0.27163 -0.91029
  24.0  0.64456  0.30522 -0.96990
  25.0  0.68205  0.33998 -1.02178
  26.0  0.71879  0.37576 -1.06594
  27.0  0.75462  0.41240 -1.10234
  28.0  0.78941  0.44972 -1.13099
  29.0  0.82302  0.48752 -1.15185
  30.0  0.85531  0.52560 -1.16489
  31.0  0.88616  0.56374 -1.17006
  32.0  0.91545  0.60171 -1.16730
  33.0  0.94305  0.63928 -1.15656
  34.0  0.96887  0.67618 -1.13775
  35.0  0.99280  0.71215 -1.11080
  36.0  1.01475  0.74691 -1.07559
  37.0  1.03462  0.78018 -1.03203
  38.0  1.05235  0.81163 -0.97998
  39.0  1.06786  0.84098 -0.91932
  40.0  1.08108  0.86787 -0.84989
  41.0  1.09197  0.89119 -0.77143
  42.0  1.10049  0.90713 -0.68322
  43.0  1.10660  0.92280 -0.58611
  44.0  1.11027  0.93819 -0.48006
  45.0  1.11150  0.95329 -0.36501
  46.0  1.11082  0.96810 -0.36701
  47.0  1.10879  0.98261 -0.36871
  48.0  1.10541  0.99683 -0.37011
  49.0  1.10068  1.01074 -0.37123
  50.0  1.09461  1.02434 -0.37207
  51.0  1.08721  1.03764 -0.37265
  52.0  1.07848  1.05061 -0.37297
  53.0  1.06844  1.06327 -0.37304
  54.0  1.05710  1.07560 -0.37288
  55.0  1.04447  1.08760 -0.37250
  56.0  1.03056  1.09928 -0.37191
  57.0  1.01541  1.11062 -0.37112
  58.0  0.99901  1.12162 -0.37014
  59.0  0.98140  1.13227 -0.36900
  60.0  0.96259  1.14259 -0.36770
  61.0  0.94261  1.15255 -0.36626
  62.0  0.92148  1.16217 -0.36468
  63.0  0.89922  1.17143 -0.36300
  64.0  0.87587  1.18033 -0.36121
  65.0  0.85146  1.18888 -0.35933
  66.0  0.82601  1.19706 -0.35738
  67.0  0.79955  1.20487 -0.35538
  68.0  0.77211  1.21232 -0.35332
  69.0  0.74374  1.21941 -0.35124
  70.0  0.71446  1.22612 -0.34913
  71.0  0.68431  1.23245 -0.34702
  72.0  0.65332  1.23841 -0.34492
  73.0  0.62154  1.24400 -0.34284
  74.0  0.58901  1.24920 -0.34079
  75.0  0.55575  1.25402 -0.33878
  76.0  0.52182  1.25847 -0.33683
  77.0  0.48725  1.26252 -0.33494
  78.0  0.45209  1.26620 -0.33313
  79.0  0.41637  1.26949 -0.33140
  80.0  0.38015  1.27239 -0.32977
  81.0  0.34347  1.27490 -0.32823
  82.0  0.30637  1.27703 -0.32681
  83.0  0.26890  1.27876 -0.32550
  84.0  0.23109  1.28011 -0.32431
  85.0  0.19301  1.28107 -0.32325
  86.0  0.15469  1.28164 -0.32233
  87.0  0.11618  1.28181 -0.32153
  88.0  0.07753  1.28160 -0.32088
  89.0  0.03879  1.28099 -0.32037
  90.0 -0.00000  1.28000 -0.32000
  91.0 -0.03879  1.28099 -0.32037
  92.0 -0.07753  1.28160 -0.32088
  93.0 -0.11618  1.28181 -0.32153
  94.0 -0.15469  1.28164 -0.32233
  95.0 -0.19301  1.28107 -0.32325
  96.0 -0.23109  1.28011 -0.32431
  97.0 -0.26890  1.27876 -0.32550
  98.0 -0.30637  1.27703 -0.32681
  99.0 -0.34347  1.27490 -0.32823
 100.0 -0.38016  1.27239 -0.32977
 101.0 -0.41638  1.26949 -0.33140
 102.0 -0.45209  1.26620 -0.33313
 103.0 -0.48725  1.26252 -0.33494
 104.0 -0.52182  1.25847 -0.33683
 105.0 -0.55575  1.25402 -0.33878
 106.0 -0.58901  1.24920 -0.34079
 107.0 -0.62154  1.24400 -0.34284
 108.0 -0.65332  1.23841 -0.34492
 109.0 -0.68431  1.23245 -0.34702
 110.0 -0.71446  1.22612 -0.34913
 111.0 -0.74374  1.21941 -0.35124
 112.0 -0.77211  1.21232 -0.35332
 113.0 -0.79955  1.20487 -0.35538
 114.0 -0.82601  1.19706 -0.35738
 115.0 -0.85146  1.18888 -0.35933
 116.0 -0.87587  1.18033 -0.36121
 117.0 -0.89922  1.17143 -0.36300
 118.0 -0.92148  1.16217 -0.36468
 119.0 -0.94261  1.15255 -0.36626
 120.0 -0.96259  1.14259 -0.36770
 121.0 -0.98140  1.13227 -0.36900
 122.0 -0.99901  1.12162 -0.37014
 123.0 -1.01541  1.11062 -0.37112
 124.0 -1.03057  1.09928 -0.37191
 125.0 -1.04447  1.08760 -0.37250
 126.0 -1.05710  1.07560 -0.37288
 127.0 -1.06844  1.06327 -0.37304
 128.0 -1.07848  1.05061 -0.37297
 129.0 -1.08721  1.03763 -0.37265
 130.0 -1.09461  1.02434 -0.37207
 131.0 -1.10068  1.01074 -0.37123
 132.0 -1.10541  0.99683 -0.37011
 133.0 -1.10879  0.98261 -0.36871
 134.0 -1.11082  0.96810 -0.36701
 135.0 -1.11150  0.95329 -0.36501
 136.0 -1.10909  0.93819 -0.36238
 137.0 -1.10187  0.92280 -0.35880
 138.0 -1.08987  0.90713 -0.35423
 139.0 -1.07313  0.89119 -0.34864
 140.0 -1.05172  0.87497 -0.34202
 141.0 -1.02573  0.85849 -0.33435
 142.0 -0.99525  0.84175 -0.32563
 143.0 -0.96042  0.82475 -0.31584
 144.0 -0.92136  0.80750 -0.30501
 145.0 -0.87823  0.79000 -0.29313
 146.0 -0.83120  0.77227 -0.28024
 147.0 -0.78046  0.75429 -0.26634
 148.0 -0.72620  0.73609 -0.25148
 149.0 -0.66864  0.71766 -0.23569
 150.0 -0.60801  0.69902 -0.21902
 151.0 -0.54455  0.68016 -0.20151
 152.0 -0.47850  0.66110 -0.18321
 153.0 -0.41014  0.64183 -0.16420
 154.0 -0.33971  0.62237 -0.14454
 155.0 -0.26752  0.60272 -0.12429
 156.0 -0.19383  0.58288 -0.10354
 157.0 -0.11895  0.56287 -0.08236
 158.0 -0.04316  0.54268 -0.06083
 159.0  0.03323  0.52233 -0.03904
 160.0  0.10992  0.50183 -0.01709
 161.0  0.02905  0.48116 -0.03230
 162.0 -0.04587  0.46036 -0.04647
 163.0 -0.11467  0.43941 -0.05953
 164.0 -0.17716  0.41833 -0.07140
 165.0 -0.23310  0.39712 -0.08198
 166.0 -0.28221  0.37579 -0.09118
 167.0 -0.32413  0.35434 -0.09888
 168.0 -0.35840  0.33279 -0.10494
 169.0 -0.38435  0.31113 -0.10916
 170.0 -0.40085  0.28938 -0.11125
 171.0 -0.40580  0.26755 -0.11067
 172.0 -0.36369  0.24563 -0.09858
 173.0 -0.29959  0.22363 -0.08115
 174.0 -0.21949  0.20157 -0.05984
 175.0 -0.13826  0.17945 -0.03834
 176.0 -0.07156  0.15727 -0.02059
 177.0 -0.00487  0.13505 -0.00298
 178.0  0.06183  0.11278  0.01446
 179.0  0.12853  0.09048  0.03173
 180.0  0.19522  0.06815  0.04881
1.00000 0.08000 0.34100 -16.40000 16.50000 5.50000 1.30000 1.40000 0.00000 1.84000 0.20000 0.01000 0.10000 0.01520 2.00000 0.35100 0.40000 -0.00210 2.00000 -16.00000 17.00000 1.55000 -0.07500 0.02150 -0.68500
alpha cl cd cm:
-180.0  0.19522  0.06815  0.04881
-179.0  0.24102  0.09048  0.06064
-178.0  0.28682  0.11278  0.07265
-177.0  0.33262  0.13505  0.08481
-176.0  0.37842  0.15727  0.09712
-175.0  0.42422  0.17945  0.10956
-174.0  0.46792  0.20157  0.12161
-173.0  0.50862  0.22363  0.13302
-172.0  0.54805  0.24563  0.14422
-171.0  0.58611  0.26755  0.15519
-170.0  0.62267  0.28938  0.16587
-169.0  0.65758  0.31113  0.17622
-168.0  0.69063  0.33279  0.18618
-167.0  0.72153  0.35434  0.19569
-166.0  0.74986  0.37579  0.20462
-165.0  0.77492  0.39712  0.21282
-164.0  0.79513  0.41833  0.21991
-163.0  0.79831  0.43941  0.22297
-162.0  0.77742  0.46036  0.22041
-161.0  0.73985  0.48116  0.21405
-160.0  0.68700  0.50183  0.20430
-159.0  0.71365  0.52233  0.21336
-158.0  0.74020  0.54268  0.22240
-157.0  0.76654  0.56287  0.23138
-156.0  0.79257  0.58288  0.24028
-155.0  0.81818  0.60272  0.24906
-154.0  0.84327  0.62237  0.25769
-153.0  0.86774  0.64183  0.26614
-152.0  0.89150  0.66110  0.27438
-151.0  0.91446  0.68016  0.28239
-150.0  0.93651  0.69902  0.29014
-149.0  0.95759  0.71766  0.29761
-148.0  0.97759  0.73609  0.30478
-147.0  0.99645  0.75429  0.31163
-146.0  1.01408  0.77227  0.31814
-145.0  1.03043  0.79000  0.32430
-144.0  1.04542  0.80750  0.33010
-143.0  1.05899  0.82475  0.33552
-142.0  1.07110  0.84175  0.34057
-141.0  1.08169  0.85849  0.34522
-140.0  1.09072  0.87497  0.34949
-139.0  1.09816  0.89119  0.35337
-138.0  1.10398  0.90713  0.35685
-137.0  1.10815  0.92280  0.35995
-136.0  1.11066  0.93819  0.36267
-135.0  1.11150  0.95329  0.36501
-134.0  1.11082  0.96810  0.36701
-133.0  1.10879  0.98261  0.36871
-132.0  1.10541  0.99683  0.37011
-131.0  1.10068  1.01074  0.37123
-130.0  1.09461  1.02434  0.37207
-129.0  1.08721  1.03763  0.37265
-128.0  1.07848  1.05061  0.37297
-127.0  1.06844  1.06327  0.37304
-126.0  1.05710  1.07560  0.37288
-125.0  1.04447  1.08760  0.37250
-124.0  1.03057  1.09928  0.37191
-123.0  1.01541  1.11062  0.37112
-122.0  0.99901  1.12162  0.37014
-121.0  0.98140  1.13227  0.36900
-120.0  0.96259  1.14259  0.36770
-119.0  0.94261  1.15255  0.36626
-118.0  0.92148  1.16217  0.36468
-117.0  0.89922  1.17143  0.36300
-116.0  0.87587  1.18033  0.36121
-115.0  0.85146  1.18888  0.35933
-114.0  0.82601  1.19706  0.35738
-113.0  0.79955  1.20487  0.35538
-112.0  0.77211  1.21232  0.35332
-111.0  0.74374  1.21941  0.35124
-110.0  0.71446  1.22612  0.34913
-109.0  0.68431  1.23245  0.34702
-108.0  0.65332  1.23841  0.34492
-107.0  0.62154  1.24400  0.34284
-106.0  0.58901  1.24920  0.34079
-105.0  0.55575  1.25402  0.33878
-104.0  0.52182  1.25847  0.33683
-103.0  0.48725  1.26252  0.33494
-102.0  0.45209  1.26620  0.33313
-101.0  0.41638  1.26949  0.33140
-100.0  0.38016  1.27239  0.32977
 -99.0  0.34347  1.27490  0.32823
 -98.0  0.30637  1.27703  0.32681
 -97.0  0.26890  1.27876  0.32550
 -96.0  0.23109  1.28011  0.32431
 -95.0  0.19301  1.28107  0.32325
 -94.0  0.15469  1.28164  0.32233
 -93.0  0.11618  1.28181  0.32153
 -92.0  0.07753  1.28160  0.32088
 -91.0  0.03879  1.28099  0.32037
 -90.0  0.00000  1.28000  0.32000
 -89.0 -0.03879  1.28099  0.32037
 -88.0 -0.07753  1.28160  0.32088
 -87.0 -0.11618  1.28181  0.32153
 -86.0 -0.15469  1.28164  0.32233
 -85.0 -0.19301  1.28107  0.32325
 -84.0 -0.23109  1.28011  0.32431
 -83.0 -0.26890  1.27876  0.32550
 -82.0 -0.30637  1.27703  0.32681
 -81.0 -0.34347  1.27490  0.32823
 -80.0 -0.38015  1.27239  0.32977
 -79.0 -0.41637  1.26949  0.33140
 -78.0 -0.45209  1.26620  0.33313
 -77.0 -0.48725  1.26252  0.33494
 -76.0 -0.52182  1.25847  0.33683
 -75.0 -0.55575  1.25402  0.33878
 -74.0 -0.58901  1.24920  0.34079
 -73.0 -0.62154  1.24400  0.34284
 -72.0 -0.65332  1.23841  0.34492
 -71.0 -0.68431  1.23245  0.34702
 -70.0 -0.71446  1.22612  0.34913
 -69.0 -0.74374  1.21941  0.35124
 -68.0 -0.77211  1.21232  0.35332
 -67.0 -0.79955  1.20487  0.35538
 -66.0 -0.82601  1.19706  0.35738
 -65.0 -0.85146  1.18888  0.35933
 -64.0 -0.87587  1.18033  0.36121
 -63.0 -0.89922  1.17143  0.36300
 -62.0 -0.92148  1.16217  0.36468
 -61.0 -0.94261  1.15255  0.36626
 -60.0 -0.96259  1.14259  0.36770
 -59.0 -0.98140  1.13227  0.36900
 -58.0 -0.99901  1.12162  0.37014
 -57.0 -1.01541  1.11062  0.37112
 -56.0 -1.03056  1.09928  0.37191
 -55.0 -1.04447  1.08760  0.37250
 -54.0 -1.05710  1.07560  0.37288
 -53.0 -1.06844  1.06327  0.37304
 -52.0 -1.07848  1.05061  0.37297
 -51.0 -1.08721  1.03764  0.37265
 -50.0 -1.09461  1.02434  0.37207
 -49.0 -1.10068  1.01074  0.37123
 -48.0 -1.10541  0.99683  0.37011
 -47.0 -1.10879  0.98261  0.36871
 -46.0 -1.11082  0.96810  0.36701
 -45.0 -1.11150  0.95329  0.36501
 -44.0 -1.11033  0.90754  0.79499
 -43.0 -1.10682  0.86240  1.19296
 -42.0 -1.10099  0.81792  1.55891
 -41.0 -1.09285  0.77414  1.89286
 -40.0 -1.08245  0.73110  2.19483
 -39.0 -1.06982  0.68883  2.46483
 -38.0 -1.05501  0.64738  2.70289
 -37.0 -1.03809  0.60677  2.90902
 -36.0 -1.01911  0.56705  3.08325
 -35.0 -0.99815  0.52826  3.22560
 -34.0 -0.97530  0.49043  3.33609
 -33.0 -0.95064  0.45359  3.41476
 -32.0 -0.92428  0.41778  3.46163
 -31.0 -0.89631  0.38303  3.47671
 -30.0 -0.86685  0.34938  3.46004
 -29.0 -0.83601  0.31685  3.41163
 -28.0 -0.80392  0.28548  3.33151
 -27.0 -0.77070  0.25530  3.21968
 -26.0 -0.73648  0.22633  3.07617
 -25.0 -0.70140  0.19861  2.90098
 -24.0 -0.66560  0.17217  2.69412
 -23.0 -0.62921  0.14702  2.45560
 -22.0 -0.59239  0.12321  2.18541
 -21.0 -0.55527  0.10074  1.88354
 -20.0 -0.51800  0.07965  1.55000
 -19.9 -0.52810  0.07762  1.50937
 -19.8 -0.53797  0.07560  1.46875
 -19.7 -0.54759  0.07360  1.42813
 -19.6 -0.55697  0.07161  1.38750
 -19.5 -0.56611  0.06964  1.34687
 -19.4 -0.57500  0.06767  1.30625
 -19.3 -0.58365  0.06573  1.26562
 -19.2 -0.59205  0.06379  1.22500
 -19.1 -0.60020  0.06187  1.18438
 -19.0 -0.60810  0.05997  1.14375
 -18.9 -0.61575  0.05808  1.10312
 -18.8 -0.62315  0.05620  1.06250
 -18.7 -0.63030  0.05434  1.02188
 -18.6 -0.63719  0.05249  0.98125
 -18.5 -0.64381  0.05066  0.94062
 -18.4 -0.65018  0.04884  0.90000
 -18.3 -0.65629  0.04703  0.85937
 -18.2 -0.66214  0.04524  0.81875
 -18.1 -0.66771  0.04347  0.77813
 -18.0 -0.67302  0.04171  0.73750
 -17.9 -0.67806  0.03996  0.69687
 -17.8 -0.68282  0.03823  0.65625
 -17.7 -0.68730  0.03651  0.61563
 -17.6 -0.69151  0.03481  0.57500
 -17.5 -0.69543  0.03312  0.53437
 -17.4 -0.69906  0.03144  0.49375
 -17.3 -0.70240  0.02978  0.45312
 -17.2 -0.70544  0.02814  0.41250
 -17.1 -0.70817  0.02651  0.37188
 -17.0 -0.71060  0.02489  0.33125
 -16.9 -0.71271  0.02329  0.29062
 -16.8 -0.71449  0.02170  0.25000
 -16.7 -0.71593  0.02013  0.20938
 -16.6 -0.71702  0.01857  0.16875
 -16.5 -0.71773  0.01703  0.12812
 -16.4 -0.71800  0.01550  0.08750
 -16.3 -0.71661  0.01542  0.04687
 -16.2 -0.71458  0.01534  0.00625
 -16.1 -0.71220  0.01526 -0.03437
 -16.0 -0.70957  0.01518 -0.07500
 -15.9 -0.70674  0.01510 -0.07471
 -15.8 -0.70372  0.01502 -0.07442
 -15.7 -0.70056  0.01494 -0.07412
 -15.6 -0.69725  0.01487 -0.07383
 -15.5 -0.69381  0.01479 -0.07354
 -15.4 -0.69026  0.01471 -0.07325
 -15.3 -0.68661  0.01464 -0.07295
 -15.2 -0.68285  0.01456 -0.07266
 -15.1 -0.67899  0.01449 -0.07237
 -15.0 -0.67505  0.01441 -0.07208
 -14.9 -0.67102  0.01434 -0.07178
 -14.8 -0.66690  0.01427 -0.07149
 -14.7 -0.66271  0.01419 -0.07120
 -14.6 -0.65845  0.01412 -0.07091
 -14.5 -0.65411  0.01405 -0.07061
 -14.4 -0.64971  0.01398 -0.07032
 -14.3 -0.64524  0.01391 -0.07003
 -14.2 -0.64070  0.01384 -0.06974
 -14.1 -0.63610  0.01378 -0.06944
 -14.0 -0.63144  0.01371 -0.06915
 -13.9 -0.62672  0.01364 -0.06886
 -13.8 -0.62195  0.01357 -0.06857
 -13.7 -0.61712  0.01351 -0.06827
 -13.6 -0.61224  0.01344 -0.06798
 -13.5 -0.60730  0.01338 -0.06769
 -13.4 -0.60231  0.01331 -0.06740
 -13.3 -0.59727  0.01325 -0.06710
 -13.2 -0.59219  0.01319 -0.06681
 -13.1 -0.58705  0.01312 -0.06652
 -13.0 -0.58187  0.01306 -0.06623
 -12.9 -0.57664  0.01300 -0.06593
 -12.8 -0.57137  0.01294 -0.06564
 -12.7 -0.56605  0.01288 -0.06535
 -12.6 -0.56069  0.01282 -0.06506
 -12.5 -0.55529  0.01276 -0.06477
 -12.4 -0.54984  0.01271 -0.06447
 -12.3 -0.54436  0.01265 -0.06418
 -12.2 -0.53883  0.01259 -0.06389
 -12.1 -0.53327  0.01254 -0.06360
 -12.0 -0.52766  0.01248 -0.06330
 -11.9 -0.52202  0.01243 -0.06301
 -11.8 -0.51634  0.01237 -0.06272
 -11.7 -0.51062  0.01232 -0.06243
 -11.6 -0.50487  0.01226 -0.06213
 -11.5 -0.49908  0.01221 -0.06184
 -11.4 -0.49325  0.01216 -0.06155
 -11.3 -0.48739  0.01211 -0.06126
 -11.2 -0.48149  0.01206 -0.06096
 -11.1 -0.47557  0.01201 -0.06067
 -11.0 -0.46960  0.01196 -0.06038
 -10.9 -0.46361  0.01191 -0.06009
 -10.8 -0.45758  0.01186 -0.05979
 -10.7 -0.45151  0.01181 -0.05950
 -10.6 -0.44542  0.01177 -0.05921
 -10.5 -0.43930  0.01172 -0.05892
 -10.4 -0.43314  0.01168 -0.05862
 -10.3 -0.42695  0.01163 -0.05833
 -10.2 -0.42073  0.01159 -0.05804
 -10.1 -0.41449  0.01154 -0.05775
 -10.0 -0.40821  0.01150 -0.05745
  -9.9 -0.40190  0.01146 -0.05716
  -9.8 -0.39556  0.01141 -0.05687
  -9.7 -0.38920  0.01137 -0.05658
  -9.6 -0.38280  0.01133 -0.05628
  -9.5 -0.37638  0.01129 -0.05599
  -9.4 -0.36993  0.01125 -0.05570
  -9.3 -0.36345  0.01121 -0.05541
  -9.2 -0.35695  0.01118 -0.05512
  -9.1 -0.35042  0.01114 -0.05482
  -9.0 -0.34386  0.01110 -0.05453
  -8.9 -0.33727  0.01106 -0.05424
  -8.8 -0.33066  0.01103 -0.05395
  -8.7 -0.32402  0.01099 -0.05365
  -8.6 -0.31736  0.01096 -0.05336
  -8.5 -0.31067  0.01092 -0.05307
  -8.4 -0.30395  0.01089 -0.05278
  -8.3 -0.29721  0.01086 -0.05248
  -8.2 -0.29044  0.01083 -0.05219
  -8.1 -0.28365  0.01079 -0.05190
  -8.0 -0.27684  0.01076 -0.05161
  -7.9 -0.27000  0.01073 -0.05131
  -7.8 -0.26313  0.01070 -0.05102
  -7.7 -0.25625  0.01067 -0.05073
  -7.6 -0.24933  0.01065 -0.05044
  -7.5 -0.24240  0.01062 -0.05014
  -7.4 -0.23544  0.01059 -0.04985
  -7.3 -0.22846  0.01056 -0.04956
  -7.2 -0.22145  0.01054 -0.04927
  -7.1 -0.21443  0.01051 -0.04897
  -7.0 -0.20737  0.01049 -0.04868
  -6.9 -0.20030  0.01046 -0.04839
  -6.8 -0.19321  0.01044 -0.04810
  -6.7 -0.18609  0.01042 -0.04780
  -6.6 -0.17895  0.01040 -0.04751
  -6.5 -0.17179  0.01037 -0.04722
  -6.4 -0.16460  0.01035 -0.04693
  -6.3 -0.15740  0.01033 -0.04663
  -6.2 -0.15017  0.01031 -0.04634
  -6.1 -0.14292  0.01029 -0.04605
  -6.0 -0.13566  0.01027 -0.04576
  -5.9 -0.12837  0.01026 -0.04547
  -5.8 -0.12106  0.01024 -0.04517
  -5.7 -0.11372  0.01022 -0.04488
  -5.6 -0.10637  0.01021 -0.04459
  -5.5 -0.09900  0.01019 -0.04430
  -5.4 -0.09100  0.01018 -0.04400
  -5.3 -0.08300  0.01016 -0.04371
  -5.2 -0.07500  0.01015 -0.04342
  -5.1 -0.06700  0.01013 -0.04313
  -5.0 -0.05900  0.01012 -0.04283
  -4.9 -0.05100  0.01011 -0.04254
  -4.8 -0.04300  0.01010 -0.04225
  -4.7 -0.03500  0.01009 -0.04196
  -4.6 -0.02700  0.01009 -0.04166
  -4.5 -0.01900  0.01009 -0.04137
  -4.4 -0.01100  0.01010 -0.04108
  -4.3 -0.00300  0.01011 -0.04079
  -4.2  0.00500  0.01012 -0.04049
  -4.1  0.01300  0.01014 -0.04020
  -4.0  0.02100  0.01016 -0.03991
  -3.9  0.02900  0.01018 -0.03962
  -3.8  0.03700  0.01021 -0.03932
  -3.7  0.04500  0.01025 -0.03903
  -3.6  0.05300  0.01028 -0.03874
  -3.5  0.06100  0.01032 -0.03845
  -3.4  0.06900  0.01037 -0.03815
  -3.3  0.07700  0.01042 -0.03786
  -3.2  0.08500  0.01047 -0.03757
  -3.1  0.09300  0.01053 -0.03728
  -3.0  0.10100  0.01059 -0.03698
  -2.9  0.10900  0.01066 -0.03669
  -2.8  0.11700  0.01072 -0.03640
  -2.7  0.12500  0.01080 -0.03611
  -2.6  0.13300  0.01087 -0.03582
  -2.5  0.14100  0.01096 -0.03552
  -2.4  0.14900  0.01104 -0.03523
  -2.3  0.15700  0.01113 -0.03494
  -2.2  0.16500  0.01121 -0.03465
  -2.1  0.17300  0.01129 -0.03435
  -2.0  0.18100  0.01137 -0.03406
  -1.9  0.18900  0.01145 -0.03377
  -1.8  0.19700  0.01152 -0.03348
  -1.7  0.20500  0.01159 -0.03318
  -1.6  0.21300  0.01166 -0.03289
  -1.5  0.22100  0.01173 -0.03260
  -1.4  0.22900  0.01179 -0.03231
  -1.3  0.23700  0.01185 -0.03201
  -1.2  0.24500  0.01191 -0.03172
  -1.1  0.25300  0.01196 -0.03143
  -1.0  0.26100  0.01201 -0.03114
  -0.9  0.26900  0.01206 -0.03084
  -0.8  0.27700  0.01211 -0.03055
  -0.7  0.28500  0.01215 -0.03026
  -0.6  0.29300  0.01219 -0.02997
  -0.5  0.30100  0.01223 -0.02967
  -0.4  0.30900  0.01226 -0.02938
  -0.3  0.31700  0.01230 -0.02909
  -0.2  0.32500  0.01233 -0.02880
  -0.1  0.33300  0.01235 -0.02850
   0.0  0.34100  0.01238 -0.02821
   0.1  0.34900  0.01240 -0.02792
   0.2  0.35700  0.01242 -0.02763
   0.3  0.36500  0.01243 -0.02733
   0.4  0.37300  0.01244 -0.02704
   0.5  0.38100  0.01246 -0.02675
   0.6  0.38900  0.01246 -0.02646
   0.7  0.39700  0.01247 -0.02617
   0.8  0.40500  0.01247 -0.02587
   0.9  0.41300  0.01247 -0.02558
   1.0  0.42100  0.01247 -0.02529
   1.1  0.42900  0.01246 -0.02500
   1.2  0.43700  0.01245 -0.02470
   1.3  0.44500  0.01244 -0.02441
   1.4  0.45300  0.01242 -0.02412
   1.5  0.46100  0.01241 -0.02383
   1.6  0.46900  0.01239 -0.02353
   1.7  0.47700  0.01237 -0.02324
   1.8  0.48500  0.01234 -0.02295
   1.9  0.49300  0.01231 -0.02266
   2.0  0.50100  0.01228 -0.02236
   2.1  0.50900  0.01225 -0.02207
   2.2  0.51700  0.01221 -0.02178
   2.3  0.52500  0.01217 -0.02149
   2.4  0.53300  0.01213 -0.02119
   2.5  0.54100  0.01209 -0.02090
   2.6  0.54900  0.01204 -0.02061
   2.7  0.55700  0.01199 -0.02032
   2.8  0.56500  0.01195 -0.02002
   2.9  0.57300  0.01191 -0.01973
   3.0  0.58100  0.01187 -0.01944
   3.1  0.58900  0.01184 -0.01915
   3.2  0.59700  0.01181 -0.01885
   3.3  0.60500  0.01178 -0.01856
   3.4  0.61300  0.01176 -0.01827
   3.5  0.62100  0.01175 -0.01798
   3.6  0.62900  0.01173 -0.01768
   3.7  0.63700  0.01172 -0.01739
   3.8  0.64500  0.01172 -0.01710
   3.9  0.65300  0.01172 -0.01681
   4.0  0.66100  0.01172 -0.01652
   4.1  0.66900  0.01173 -0.01622
   4.2  0.67700  0.01174 -0.01593
   4.3  0.68500  0.01176 -0.01564
   4.4  0.69300  0.01178 -0.01535
   4.5  0.70100  0.01180 -0.01505
   4.6  0.70900  0.01183 -0.01476
   4.7  0.71700  0.01186 -0.01447
   4.8  0.72500  0.01189 -0.01418
   4.9  0.73300  0.01193 -0.01388
   5.0  0.74100  0.01197 -0.01359
   5.1  0.74900  0.01202 -0.01330
   5.2  0.75700  0.01207 -0.01301
   5.3  0.76500  0.01212 -0.01271
   5.4  0.77300  0.01217 -0.01242
   5.5  0.78100  0.01223 -0.01213
   5.6  0.78831  0.01228 -0.01184
   5.7  0.79559  0.01233 -0.01154
   5.8  0.80286  0.01238 -0.01125
   5.9  0.81010  0.01244 -0.01096
   6.0  0.81733  0.01249 -0.01067
   6.1  0.82453  0.01255 -0.01037
   6.2  0.83171  0.01261 -0.01008
   6.3  0.83887  0.01266 -0.00979
   6.4  0.84602  0.01272 -0.00950
   6.5  0.85313  0.01278 -0.00920
   6.6  0.86023  0.01284 -0.00891
   6.7  0.86731  0.01290 -0.00862
   6.8  0.87437  0.01296 -0.00833
   6.9  0.88140  0.01302 -0.00803
   7.0  0.88841  0.01308 -0.00774
   7.1  0.89540  0.01314 -0.00745
   7.2  0.90237  0.01320 -0.00716
   7.3  0.90931  0.01327 -0.00687
   7.4  0.91624  0.01333 -0.00657
   7.5  0.92314  0.01339 -0.00628
   7.6  0.93001  0.01346 -0.00599
   7.7  0.93686  0.01352 -0.00570
   7.8  0.94370  0.01359 -0.00540
   7.9  0.95050  0.01366 -0.00511
   8.0  0.95728  0.01372 -0.00482
   8.1  0.96404  0.01379 -0.00453
   8.2  0.97078  0.01386 -0.00423
   8.3  0.97749  0.01393 -0.00394
   8.4  0.98417  0.01400 -0.00365
   8.5  0.99084  0.01407 -0.00336
   8.6  0.99747  0.01414 -0.00306
   8.7  1.00408  0.01421 -0.00277
   8.8  1.01067  0.01429 -0.00248
   8.9  1.01723  0.01436 -0.00219
   9.0  1.02376  0.01443 -0.00189
   9.1  1.03027  0.01451 -0.00160
   9.2  1.03675  0.01458 -0.00131
   9.3  1.04321  0.01466 -0.00102
   9.4  1.04964  0.01473 -0.00072
   9.5  1.05604  0.01481 -0.00043
   9.6  1.06241  0.01489 -0.00014
   9.7  1.06876  0.01496  0.00015
   9.8  1.07508  0.01504  0.00045
   9.9  1.08137  0.01512  0.00074
  10.0  1.08763  0.01520  0.00103
  10.1  1.09386  0.01528  0.00132
  10.2  1.10007  0.01536  0.00162
  10.3  1.10624  0.01544  0.00191
  10.4  1.11239  0.01552  0.00220
  10.5  1.11850  0.01561  0.00249
  10.6  1.12458  0.01569  0.00278
  10.7  1.13064  0.01577  0.00308
  10.8  1.13666  0.01586  0.00337
  10.9  1.14265  0.01594  0.00366
  11.0  1.14861  0.01603  0.00395
  11.1  1.15453  0.01612  0.00425
  11.2  1.16043  0.01620  0.00454
  11.3  1.16629  0.01629  0.00483
  11.4  1.17211  0.01638  0.00512
  11.5  1.17790  0.01647  0.00542
  11.6  1.18366  0.01656  0.00571
  11.7  1.18938  0.01665  0.00600
  11.8  1.19507  0.01674  0.00629
  11.9  1.20072  0.01683  0.00659
  12.0  1.20633  0.01692  0.00688
  12.1  1.21191  0.01701  0.00717
  12.2  1.21745  0.01711  0.00746
  12.3  1.22295  0.01720  0.00776
  12.4  1.22841  0.01730  0.00805
  12.5  1.23383  0.01739  0.00834
  12.6  1.23921  0.01749  0.00863
  12.7  1.24455  0.01758  0.00893
  12.8  1.24984  0.01768  0.00922
  12.9  1.25510  0.01778  0.00951
  13.0  1.26031  0.01787  0.00980
  13.1  1.26548  0.01797  0.01010
  13.2  1.27060  0.01807  0.01039
  13.3  1.27567  0.01817  0.01068
  13.4  1.28070  0.01827  0.01097
  13.5  1.28568  0.01837  0.01127
  13.6  1.29060  0.01848  0.01156
  13.7  1.29548  0.01858  0.01185
  13.8  1.30031  0.01868  0.01214
  13.9  1.30508  0.01878  0.01243
  14.0  1.30980  0.01889  0.01273
  14.1  1.31446  0.01899  0.01302
  14.2  1.31907  0.01910  0.01331
  14.3  1.32361  0.01920  0.01360
  14.4  1.32809  0.01931  0.01390
  14.5  1.33251  0.01942  0.01419
  14.6  1.33687  0.01953  0.01448
  14.7  1.34115  0.01963  0.01477
  14.8  1.34537  0.01974  0.01507
  14.9  1.34951  0.01985  0.01536
  15.0  1.35357  0.01996  0.01565
  15.1  1.35755  0.02007  0.01594
  15.2  1.36145  0.02019  0.01624
  15.3  1.36526  0.02030  0.01653
  15.4  1.36898  0.02041  0.01682
  15.5  1.37259  0.02052  0.01711
  15.6  1.37610  0.02064  0.01741
  15.7  1.37949  0.02075  0.01770
  15.8  1.38276  0.02087  0.01799
  15.9  1.38589  0.02098  0.01828
  16.0  1.38887  0.02110  0.01858
  16.1  1.39167  0.02122  0.01887
  16.2  1.39427  0.02134  0.01916
  16.3  1.39662  0.02145  0.01945
  16.4  1.39863  0.02157  0.01975
  16.5  1.40000  0.02169  0.02004
  16.6  1.39971  0.02325  0.02033
  16.7  1.39897  0.02482  0.02062
  16.8  1.39782  0.02640  0.02092
  16.9  1.39630  0.02800  0.02121
  17.0  1.39443  0.02962  0.02150
  17.1  1.39221  0.03125 -0.00205
  17.2  1.38965  0.03289 -0.02560
  17.3  1.38677  0.03455 -0.04915
  17.4  1.38357  0.03622 -0.07270
  17.5  1.38005  0.03790 -0.09625
  17.6  1.37623  0.03960 -0.11980
  17.7  1.37210  0.04132 -0.14335
  17.8  1.36767  0.04305 -0.16690
  17.9  1.36295  0.04479 -0.19045
  18.0  1.35793  0.04655 -0.21400
  18.1  1.35263  0.04832 -0.23755
  18.2  1.34704  0.05011 -0.26110
  18.3  1.34116  0.05191 -0.28465
  18.4  1.33501  0.05372 -0.30820
  18.5  1.32858  0.05555 -0.33175
  18.6  1.32187  0.05739 -0.35530
  18.7  1.31489  0.05925 -0.37885
  18.8  1.30763  0.06112 -0.40240
  18.9  1.30011  0.06301 -0.42595
  19.0  1.29232  0.06491 -0.44950
  19.1  1.28426  0.06682 -0.47305
  19.2  1.27593  0.06875 -0.49660
  19.3  1.26735  0.07069 -0.52015
  19.4  1.25850  0.07264 -0.54370
  19.5  1.24939  0.07461 -0.56725
  19.6  1.24003  0.07659 -0.59080
  19.7  1.23040  0.07859 -0.61435
  19.8  1.22052  0.08060 -0.63790
  19.9  1.21039  0.08263 -0.66145
  20.0  1.20000  0.08467 -0.68500
  21.0  1.19444  0.10581 -0.89521
  22.0  1.18891  0.12830 -1.08653
  23.0  1.18342  0.15213 -1.25898
  24.0  1.17799  0.17727 -1.41261
  25.0  1.17265  0.20369 -1.54744
  26.0  1.16742  0.23136 -1.66352
  27.0  1.16232  0.26025 -1.76088
  28.0  1.15736  0.29034 -1.83958
  29.0  1.15258  0.32160 -1.89964
  30.0  1.14798  0.35399 -1.94112
  31.0  1.14359  0.38749 -1.96406
  32.0  1.13942  0.42206 -1.96851
  33.0  1.13549  0.45768 -1.95452
  34.0  1.13181  0.49430 -1.92214
  35.0  1.12840  0.53189 -1.87141
  36.0  1.12528  0.57042 -1.80238
  37.0  1.12245  0.60985 -1.71511
  38.0  1.11992  0.65015 -1.60962
  39.0  1.11771  0.69127 -1.48598
  40.0  1.11583  0.73319 -1.34421
  41.0  1.11428  0.77586 -1.18437
  42.0  1.11307  0.81925 -1.00650
  43.0  1.11220  0.86331 -0.81062
  44.0  1.11167  0.90800 -0.59678
  45.0  1.11150  0.95329 -0.36501
  46.0  1.11082  0.96810 -0.36701
  47.0  1.10879  0.98261 -0.36871
  48.0  1.10541  0.99683 -0.37011
  49.0  1.10068  1.01074 -0.37123
  50.0  1.09461  1.02434 -0.37207
  51.0  1.08721  1.03764 -0.37265
  52.0  1.07848  1.05061 -0.37297
  53.0  1.06844  1.06327 -0.37304
  54.0  1.05710  1.07560 -0.37288
  55.0  1.04447  1.08760 -0.37250
  56.0  1.03056  1.09928 -0.37191
  57.0  1.01541  1.11062 -0.37112
  58.0  0.99901  1.12162 -0.37014
  59.0  0.98140  1.13227 -0.36900
  60.0  0.96259  1.14259 -0.36770
  61.0  0.94261  1.15255 -0.36626
  62.0  0.92148  1.16217 -0.36468
  63.0  0.89922  1.17143 -0.36300
  64.0  0.87587  1.18033 -0.36121
  65.0  0.85146  1.18888 -0.35933
  66.0  0.82601  1.19706 -0.35738
  67.0  0.79955  1.20487 -0.35538
  68.0  0.77211  1.21232 -0.35332
  69.0  0.74374  1.21941 -0.35124
  70.0  0.71446  1.22612 -0.34913
  71.0  0.68431  1.23245 -0.34702
  72.0  0.65332  1.23841 -0.34492
  73.0  0.62154  1.24400 -0.34284
  74.0  0.58901  1.24920 -0.34079
  75.0  0.55575  1.25402 -0.33878
  76.0  0.52182  1.25847 -0.33683
  77.0  0.48725  1.26252 -0.33494
  78.0  0.45209  1.26620 -0.33313
  79.0  0.41637  1.26949 -0.33140
  80.0  0.38015  1.27239 -0.32977
  81.0  0.34347  1.27490 -0.32823
  82.0  0.30637  1.27703 -0.32681
  83.0  0.26890  1.27876 -0.32550
  84.0  0.23109  1.28011 -0.32431
  85.0  0.19301  1.28107 -0.32325
  86.0  0.15469  1.28164 -0.32233
  87.0  0.11618  1.28181 -0.32153
  88.0  0.07753  1.28160 -0.32088
  89.0  0.03879  1.28099 -0.32037
  90.0 -0.00000  1.28000 -0.32000
  91.0 -0.03879  1.28099 -0.32037
  92.0 -0.07753  1.28160 -0.32088
  93.0 -0.11618  1.28181 -0.32153
  94.0 -0.15469  1.28164 -0.32233
  95.0 -0.19301  1.28107 -0.32325
  96.0 -0.23109  1.28011 -0.32431
  97.0 -0.26890  1.27876 -0.32550
  98.0 -0.30637  1.27703 -0.32681
  99.0 -0.34347  1.27490 -0.32823
 100.0 -0.38016  1.27239 -0.32977
 101.0 -0.41638  1.26949 -0.33140
 102.0 -0.45209  1.26620 -0.33313
 103.0 -0.48725  1.26252 -0.33494
 104.0 -0.52182  1.25847 -0.33683
 105.0 -0.55575  1.25402 -0.33878
 106.0 -0.58901  1.24920 -0.34079
 107.0 -0.62154  1.24400 -0.34284
 108.0 -0.65332  1.23841 -0.34492
 109.0 -0.68431  1.23245 -0.34702
 110.0 -0.71446  1.22612 -0.34913
 111.0 -0.74374  1.21941 -0.35124
 112.0 -0.77211  1.21232 -0.35332
 113.0 -0.79955  1.20487 -0.35538
 114.0 -0.82601  1.19706 -0.35738
 115.0 -0.85146  1.18888 -0.35933
 116.0 -0.87587  1.18033 -0.36121
 117.0 -0.89922  1.17143 -0.36300
 118.0 -0.92148  1.16217 -0.36468
 119.0 -0.94261  1.15255 -0.36626
 120.0 -0.96259  1.14259 -0.36770
 121.0 -0.98140  1.13227 -0.36900
 122.0 -0.99901  1.12162 -0.37014
 123.0 -1.01541  1.11062 -0.37112
 124.0 -1.03057  1.09928 -0.37191
 125.0 -1.04447  1.08760 -0.37250
 126.0 -1.05710  1.07560 -0.37288
 127.0 -1.06844  1.06327 -0.37304
 128.0 -1.07848  1.05061 -0.37297
 129.0 -1.08721  1.03763 -0.37265
 130.0 -1.09461  1.02434 -0.37207
 131.0 -1.10068  1.01074 -0.37123
 132.0 -1.10541  0.99683 -0.37011
 133.0 -1.10879  0.98261 -0.36871
 134.0 -1.11082  0.96810 -0.36701
 135.0 -1.11150  0.95329 -0.36501
 136.0 -1.10989  0.93819 -0.36253
 137.0 -1.10507  0.92280 -0.35939
 138.0 -1.09707  0.90713 -0.35557
 139.0 -1.08590  0.89119 -0.35105
 140.0 -1.07161  0.87497 -0.34583
 141.0 -1.05427  0.85849 -0.33990
 142.0 -1.03394  0.84175 -0.33325
 143.0 -1.01070  0.82475 -0.32588
 144.0 -0.98464  0.80750 -0.31781
 145.0 -0.95586  0.79000 -0.30903
 146.0 -0.92448  0.77227 -0.29957
 147.0 -0.89062  0.75429 -0.28944
 148.0 -0.85442  0.73609 -0.27867
 149.0 -0.81602  0.71766 -0.26727
 150.0 -0.77557  0.69902 -0.25529
 151.0 -0.73322  0.68016 -0.24276
 152.0 -0.68916  0.66110 -0.22971
 153.0 -0.64354  0.64183 -0.21620
 154.0 -0.59656  0.62237 -0.20225
 155.0 -0.54839  0.60272 -0.18793
 156.0 -0.49922  0.58288 -0.17329
 157.0 -0.44926  0.56287 -0.15837
 158.0 -0.39869  0.54268 -0.14324
 159.0 -0.34773  0.52233 -0.12795
 160.0 -0.29656  0.50183 -0.11258
 161.0 -0.34814  0.48116 -0.12146
 162.0 -0.38530  0.46036 -0.12718
 163.0 -0.40682  0.43941 -0.12938
 164.0 -0.40623  0.41833 -0.12645
 165.0 -0.38646  0.39712 -0.11902
 166.0 -0.36150  0.37579 -0.11042
 167.0 -0.33312  0.35434 -0.10107
 168.0 -0.30209  0.33279 -0.09117
 169.0 -0.26885  0.31113 -0.08082
 170.0 -0.23370  0.28938 -0.07010
 171.0 -0.19686  0.26755 -0.05907
 172.0 -0.15849  0.24563 -0.04778
 173.0 -0.11872  0.22363 -0.03627
 174.0 -0.07766  0.20157 -0.02458
 175.0 -0.03378  0.17945 -0.01232
 176.0  0.01202  0.15727  0.00026
 177.0  0.05782  0.13505  0.01267
 178.0  0.10362  0.11278  0.02491
 179.0  0.14942  0.09048  0.03696
 180.0  0.19522  0.06815  0.04881
